N,Time(ms),FLOPS
1,0.001,2000000.000
2,0.000,inf
3,0.001,54000000.000
4,0.001,128000000.000
5,0.001,250000000.000
6,0.001,432000000.000
7,0.002,343000000.000
8,0.002,512000000.000
9,0.003,486000000.000
10,0.004,500000000.000
11,0.005,532400000.000
12,0.005,691200000.000
13,0.008,549250000.000
14,0.009,609777777.778
15,0.011,613636363.636
16,0.013,630153846.154
17,0.017,578000000.000
18,0.022,530181818.182
19,0.026,527615384.615
20,0.030,533333333.333
21,0.035,529200000.000
22,0.039,546051282.051
23,0.044,553045454.545
24,0.051,542117647.059
25,0.056,558035714.286
26,0.063,557968253.968
27,0.070,562371428.571
28,0.078,562871794.872
29,0.086,567186046.512
30,0.094,574468085.106
31,0.095,627178947.368
32,0.114,574877192.982
33,0.124,579629032.258
34,0.134,586626865.672
35,0.146,587328767.123
36,0.158,590582278.481
37,0.172,588988372.093
38,0.186,590021505.376
39,0.199,596170854.271
40,0.213,600938967.136
41,0.230,599313043.478
42,0.246,602341463.415
43,0.266,597796992.481
44,0.298,571704697.987
45,0.302,603476821.192
46,0.302,644609271.523
47,0.345,601872463.768
48,0.366,604327868.852
49,0.401,586778054.863
50,0.386,647668393.782
51,0.436,608490825.688
52,0.472,595796610.169
53,0.465,640331182.796
54,0.518,607969111.969
55,0.543,612799263.352
56,0.576,609777777.778
57,0.605,612208264.463
58,0.603,647137645.108
59,0.667,615829085.457
60,0.702,615384615.385
61,0.738,615124661.247
62,0.776,614247422.680
63,0.857,583540256.709
64,0.841,623410225.922
65,0.886,619920993.228
66,0.927,620271844.660
67,0.966,622697722.567
68,1.010,622637623.762
69,1.055,622765876.777
70,1.110,618018018.018
71,1.162,616025817.556
72,1.195,624682845.188
73,1.274,610701726.845
74,1.300,623421538.462
75,1.350,625000000.000
76,1.406,624432432.432
77,1.461,624959616.701
78,1.527,621548133.595
79,1.585,622131230.284
80,1.623,630930375.847
81,1.710,621568421.053
82,1.757,627624359.704
83,1.821,627992311.917
84,1.881,630200956.938
85,2.220,553265765.766
86,1.982,641832492.432
87,2.029,649091177.920
88,2.095,650569928.401
89,2.282,617851884.312
90,2.349,620689655.172
91,2.433,619458281.956
92,2.513,619727815.360
93,2.838,566847780.127
94,2.702,614792005.922
95,2.768,619490606.936
96,2.858,619129461.162
97,2.825,646140176.991
98,2.977,632309035.942
99,2.965,654501854.975
100,3.088,647668393.782
101,3.259,632280454.127
102,3.406,623140340.575
103,3.477,628545872.879
104,3.553,633191106.108
105,3.696,626420454.545
106,3.853,618227874.384
107,3.859,634901788.028
108,3.929,641237974.039
109,3.972,652079053.374
110,4.205,633055885.850
111,4.186,653430960.344
112,4.417,636145800.317
113,4.940,584168825.911
114,4.838,612461347.664
115,4.935,616362715.299
116,5.617,555775680.968
117,5.947,538628888.515
118,5.364,612614466.816
119,6.784,496803950.472
120,5.455,633547204.400
121,5.563,636908502.607
122,7.782,466679002.827
123,8.131,457721559.464
124,6.395,596285848.319
125,6.483,602537405.522
126,6.288,636251908.397
127,6.291,651210618.344
128,6.471,648169371.040
129,6.817,629804606.132
130,6.720,653869047.619
131,7.091,634068819.631
132,7.054,652103203.856
133,7.203,653238095.238
134,7.386,651531004.603
135,7.570,650033025.099
136,7.731,650745311.085
137,8.002,642677580.605
138,8.083,650271433.874
139,8.290,647917732.207
140,10.121,542238909.199
141,10.308,543892316.647
142,10.508,544972972.973
143,10.852,538924990.785
144,10.241,583143052.436
145,10.561,577336426.475
146,10.713,581001773.546
147,11.056,574624276.411
148,10.082,643085102.162
149,10.562,626386858.550
150,10.535,640721404.841
151,10.752,640429873.512
152,11.063,634874446.353
153,11.246,636951271.563
154,11.421,639569915.069
155,11.575,643434125.270
156,11.730,647300255.754
157,12.107,639281903.031
158,12.250,643969306.122
159,12.507,642788678.340
160,12.838,638105623.929
161,13.042,639975617.237
162,13.509,629436375.750
163,13.586,637530840.571
164,13.762,641032408.080
165,14.009,641319865.801
166,14.311,639269932.220
167,14.579,638927635.640
168,15.069,629322715.509
169,15.218,634355237.219
170,15.278,643147008.771
171,15.592,641381605.952
172,15.854,641913460.325
173,16.176,640172725.025
174,16.641,633137912.385
175,16.750,639925373.134
176,17.066,638904957.225
177,17.301,641030345.067
178,17.756,635250281.595
179,17.887,641285738.246
180,18.127,643460031.996
181,18.509,640741369.064
182,24.028,501795238.888
183,19.323,634320447.136
184,19.668,633465934.513
185,20.263,624944480.087
186,20.436,629756899.589
187,21.098,619888425.443
188,20.774,639710407.240
189,21.379,631579493.896
190,22.872,599772647.779
191,29.913,465875773.075
192,22.151,639058101.214
193,22.557,637412510.529
194,22.833,639546621.119
195,23.250,637838709.677
196,23.492,641029797.378
197,24.091,634707816.197
198,24.125,643514362.694
199,24.550,642003991.853
200,25.115,637069480.390
201,25.295,642071634.710
202,26.030,633300653.093
203,26.234,637754593.276
204,26.672,636597480.504
205,27.244,632442005.579
206,29.671,589249839.911
207,31.057,571191229.030
208,28.627,628701016.523
209,28.555,639420696.901
210,29.064,637283236.994
211,29.592,634896661.260
212,29.822,638999932.935
213,30.577,632082741.930
214,30.623,640064265.421
215,31.318,634674947.315
216,31.767,634475776.749
217,32.013,638385218.505
218,32.547,636632070.544
219,32.367,649022708.314
220,35.872,593666369.313
221,34.128,632551629.161
222,33.814,647131247.412
223,34.796,637404701.690
224,35.677,630065532.416
225,35.805,636258902.388
226,36.282,636303180.641
227,36.782,636022130.390
228,37.283,635804629.456
229,37.453,641283154.887
230,37.922,641685565.107
231,38.722,636660864.625
232,39.247,636337452.544
233,40.013,632261365.056
234,40.400,634302178.218
235,40.769,636654075.400
236,41.340,635909820.997
237,41.637,639433820.880
238,42.542,633786469.842
239,42.677,639778756.707
240,43.336,637991508.215
241,43.782,639418984.971
242,44.290,639985911.041
243,45.309,633379990.730
244,45.502,638511889.587
245,46.325,634910955.208
246,46.743,636969642.513
247,47.444,635242517.494
248,47.850,637533625.914
249,48.538,636130413.284
250,49.628,629684855.324
251,51.319,616272764.473
252,53.795,594962654.522
253,52.427,617783851.832
254,52.709,621793773.359
255,52.412,632732007.937
256,52.524,638839996.954
257,53.473,634884633.366
258,54.587,629216187.004
259,55.485,626258592.412
260,54.940,639825263.924
261,55.794,637329497.795
262,57.145,629441875.930
263,56.822,640295906.515
264,57.845,636174051.344
265,58.362,637730886.536
266,59.405,633653598.182
267,59.532,639459887.120
268,60.402,637357438.495
269,64.170,606673180.614
270,62.017,634761436.380
271,62.912,632709530.773
272,62.955,639302612.978
273,63.516,640670602.683
274,64.705,635834139.556
275,67.047,620367055.946
276,69.254,607172899.760
277,66.110,642986930.873
278,67.597,635677678.003
279,67.899,639704237.176
280,68.750,638603636.364
281,69.325,640116581.320
282,70.752,633926051.560
283,71.508,633920316.608
284,71.373,641875891.444
285,73.334,631334033.327
286,74.573,627402840.170
287,73.613,642275223.126
288,74.433,641862399.742
289,75.125,642597510.815
290,76.010,641731351.138
291,77.848,633084241.085
292,77.946,638829138.121
293,78.497,640884543.358
294,79.802,636880880.178
295,80.412,638520991.892
296,81.525,636230260.656
297,81.912,639663858.775
298,82.853,638808299.036
299,83.967,636700108.376
300,84.857,636364707.685
301,85.536,637647329.779
302,86.118,639671334.680
303,86.652,642065434.150
304,87.770,640183752.991
305,88.315,642532412.387
306,89.428,640797423.626
307,90.531,639216246.369
308,91.479,638793865.259
309,91.740,643200981.033
310,97.305,612322080.058
311,93.365,644357757.190
312,94.505,642745420.877
313,95.697,640862242.286
314,96.711,640240386.306
315,102.011,612794208.468
316,99.366,635116558.984
317,100.708,632621301.188
318,101.731,632205168.533
319,106.066,612104896.951
320,102.418,639887519.772
321,102.940,642629900.913
322,104.610,638299359.526
323,105.091,641315945.228
324,106.165,640742692.978
325,106.474,644817044.537
326,107.941,641942839.144
327,108.726,643190828.321
328,109.797,642778072.261
329,110.541,644309152.260
330,111.452,644887485.195
331,112.915,642336111.234
332,113.953,642271252.183
333,120.648,612128456.336
334,115.933,642779950.489
335,117.504,639899492.783
336,118.023,642807859.485
337,120.563,634900475.270
338,120.351,641697567.947
339,121.891,639230443.593
340,122.523,641577499.735
341,123.227,643557353.502
342,124.735,641386747.906
343,125.267,644281526.659
344,126.399,644112437.598
345,127.383,644726925.885
346,128.725,643569407.652
347,130.091,642349170.965
348,131.979,638649967.040
349,134.751,630919978.330
350,133.857,640609008.121
351,134.380,643600997.172
352,135.695,642827045.949
353,136.039,646681863.289
354,137.343,646001092.156
355,138.975,643840618.816
356,139.704,645908721.296
357,142.565,638295416.126
358,141.460,648702276.262
359,144.299,641283432.318
360,144.358,646392995.193
361,145.585,646301212.350
362,146.896,645870929.093
363,147.761,647425870.155
364,150.551,640693771.546
365,150.671,645474245.210
366,151.265,648238468.912
367,151.924,650731457.834
368,153.757,648244073.441
369,155.214,647408210.600
370,156.331,648022465.154
371,158.173,645683030.606
372,158.973,647642656.300
373,160.367,647204437.322
374,161.868,646373884.894
375,163.158,646420953.922
376,164.171,647585456.628
377,165.199,648704084.165
378,167.150,646247705.654
379,172.723,630372781.853
380,176.030,623439186.502
381,175.061,631852222.939
382,176.373,632103190.398
383,173.159,648905191.183
384,175.920,643736971.351
385,175.742,649436389.708
386,177.407,648367381.219
387,179.201,646878120.100
388,180.344,647773943.131
389,181.649,648105621.281
390,182.726,649267208.826
391,192.044,622528910.041
392,187.663,641962326.085
393,191.213,634877931.940
394,189.638,645049873.970
395,197.901,622835407.603
396,193.178,642921409.270
397,193.428,646967067.850
398,194.923,646868681.479
399,195.374,650252326.307
400,200.692,637793235.405
401,198.744,648887020.489
402,200.607,647682364.025
403,207.173,631847074.667
404,203.191,649037250.666
405,204.114,650911990.358
406,205.168,652376744.911
407,207.331,650352749.951
408,209.668,647855771.982
409,214.091,639148109.916
410,213.227,646456593.208
411,223.132,622291119.158
412,218.660,639664575.139
413,221.647,635650353.941
414,222.310,638369340.111
415,221.231,646142493.593
416,222.508,647089506.894
417,224.988,644582937.757
418,225.832,646804987.779
419,228.692,643311169.608
420,229.160,646604992.145
421,230.082,648624933.719
422,231.920,648080786.478
423,236.575,639856003.382
424,241.719,630691207.559
425,247.418,620533873.849
426,244.681,631914827.878
427,240.418,647659351.629
428,243.877,642969628.132
429,243.565,648316375.506
430,245.542,647604075.881
431,246.514,649561412.334
432,249.706,645731924.743
433,251.018,646828012.334
434,252.995,646230194.273
435,253.956,648245168.454
436,267.619,619401881.032
437,257.513,648149437.116
438,260.314,645587037.194
439,261.253,647682660.103
440,263.307,647031791.787
441,270.814,633395031.276
442,277.152,623130181.272
443,273.652,635393178.197
444,277.247,631410864.680
445,278.600,632599605.169
446,278.539,637013387.712
447,275.890,647465460.872
448,278.233,646331614.151
449,285.200,634774537.167
450,281.597,647201497.175
451,287.721,637658363.484
452,293.182,629952780.184
453,290.424,640165254.938
454,295.059,634291202.776
455,319.638,589394095.821
456,295.333,642114602.838
457,304.486,626918761.454
458,302.373,635452980.259
459,301.665,641125612.849
460,303.456,641516397.764
461,303.905,644755308.402
462,304.102,648539818.877
463,310.570,639165708.214
464,315.315,633635215.578
465,326.914,615113607.860
466,312.359,647938404.208
467,314.855,646948995.569
468,318.284,644099181.863
469,318.674,647443525.358
470,323.810,641258762.855
471,332.964,627618066.818
472,326.292,644539541.270
473,326.728,647779296.540
474,329.250,646903107.062
475,335.836,638239348.968
476,337.477,639155711.352
477,342.770,633260396.184
478,341.237,640114360.401
479,343.789,639358670.580
480,341.881,646961954.598
481,343.350,648228577.254
482,351.805,636603618.482
483,349.267,645228933.738
484,353.153,642100755.197
485,359.692,634343410.473
486,367.404,624877551.687
487,357.705,645790822.046
488,368.696,630407012.824
489,368.342,634900005.973
490,369.595,636637400.398
491,374.858,631549925.572
492,369.553,644538066.258
493,373.797,641113529.536
494,374.374,644028613.098
495,374.334,648016877.975
496,377.735,646082232.253
497,379.668,646688543.675
498,385.956,640000373.100
499,385.481,644656929.914
500,386.720,646462556.889
501,390.176,644588601.042
502,398.745,634520849.164
503,398.512,638693575.099
504,398.704,642201051.407
505,400.407,643283583.953
506,405.729,638624382.285
507,448.680,580921115.271
508,452.774,579081449.023
509,452.675,582635352.074
510,457.502,579892546.918
511,417.337,639448843.501
512,415.212,646502162.751
513,422.411,639214873.666
514,421.469,644397305.614
515,422.844,646058002.478
516,424.962,646590029.226
517,429.033,644185472.912
518,431.956,643546250.081
519,434.368,643686270.628
520,435.328,645986474.566
521,440.573,641985600.570
522,444.735,639646746.939
523,449.260,636850229.266
524,449.032,640835503.928
525,449.177,644303359.255
526,452.167,643707196.677
527,457.140,640342927.768
528,482.001,610778616.642
529,462.090,640723188.124
530,463.219,642793149.677
531,470.389,636585000.925
532,481.454,625475198.046
533,473.210,639967190.042
534,473.183,643612741.793
535,481.554,635984230.221
536,483.478,637012050.186
537,488.132,634476547.327
538,490.897,634433993.282
539,505.346,619737047.488
540,497.426,633115277.448
541,495.239,639450531.965
542,498.991,638168175.378
543,497.268,643930464.056
544,500.479,643340415.882
545,505.527,640435130.072
546,504.449,645343081.263
547,516.859,633315171.062
548,554.508,593558945.948
549,561.757,589112904.690
550,590.860,563162170.396
551,598.648,558873164.197
552,537.338,626036528.219
553,579.895,583251716.259
554,551.683,616410018.072
555,562.953,607346883.310
556,584.638,587986466.839
557,563.526,613312226.943
558,556.617,624275262.883
559,544.753,641306716.989
560,545.817,643497729.092
561,558.598,632148632.827
562,560.996,632818515.640
563,560.428,636847363.087
564,571.734,627586059.251
565,573.510,628976390.996
566,578.804,626538503.535
567,594.400,613338704.576
568,569.609,643425339.136
569,586.834,627843679.814
570,581.648,636787197.755
571,587.820,633423194.175
572,596.444,627550106.967
573,607.008,619868327.930
574,610.623,619430398.134
575,610.682,622613324.120
576,615.738,620728218.820
577,608.861,631014412.156
578,608.295,634891136.702
579,604.171,642548348.067
580,609.134,640620947.115
581,612.354,640554127.188
582,613.242,642934984.884
583,616.902,642420634.072
584,621.045,641424386.317
585,623.849,641827188.951
586,626.092,642813056.228
587,635.887,636157062.497
588,634.511,640800465.240
589,637.285,641271861.098
590,648.044,633842763.763
591,670.829,615432758.572
592,653.119,635335024.705
593,648.822,642789107.028
594,653.258,641659448.487
595,664.084,634392260.618
596,659.944,641596062.696
597,661.286,643522388.195
598,667.107,641118117.483
599,703.939,610626201.986
600,681.919,633506325.531
601,677.388,640937840.647
602,679.685,641965639.966
603,691.055,634555070.146
604,693.689,635295828.534
605,712.267,621803691.593
606,697.004,638576008.172
607,701.703,637445024.462
608,707.726,635148947.474
609,705.170,640601639.321
610,714.220,635605275.685
611,712.652,640141698.894
612,717.105,639295299.851
613,718.411,641266341.969
614,725.624,638004101.298
615,727.143,639787153.283
616,732.795,637954396.523
617,735.484,638722563.645
618,739.158,638642974.844
619,738.179,642599312.633
620,742.950,641572111.178
621,754.004,635230213.633
622,753.798,638478340.351
623,755.208,640364951.113
624,755.820,642932507.740
625,764.642,638574980.187
626,772.824,634851857.603
627,769.365,640767081.944
628,776.686,637769064.976
629,780.718,637511083.387
630,783.941,637923006.961
631,790.718,635472041.866
632,793.947,635901308.274
633,791.648,640780086.604
634,799.115,637805832.702
635,814.944,628381520.693
636,817.940,629042364.966
637,824.486,626996341.963
638,827.899,627356892.568
639,819.716,636603699.330
640,820.233,639193985.124
641,822.545,640389816.971
642,825.629,640988356.756
643,837.668,634732870.302
644,840.629,635452700.299
645,845.906,634434854.464
646,849.845,634436011.273
647,852.243,635593423.472
648,844.839,644141172.460
649,874.931,624870873.246
650,876.834,626401348.488
651,870.052,634202210.902
652,876.296,632589462.921
653,896.231,621368993.039
654,878.118,637104042.965
655,883.309,636269697.241
656,884.479,638342834.595
657,953.003,595157398.245
658,960.299,593336683.679
659,908.430,630078660.987
660,918.255,626179002.565
661,906.254,637359462.138
662,915.344,633898355.154
663,919.089,634180687.616
664,917.180,638380566.519
665,919.483,639662995.401
666,939.728,628710214.019
667,949.847,624818445.497
668,962.282,619522410.271
669,959.036,624415160.640
670,972.531,618516016.456
671,965.647,625718737.800
672,1006.357,603095020.952
673,1003.366,607597261.617
674,989.551,618830204.810
675,975.170,630755406.750
676,964.931,640285732.348
677,975.504,636160862.487
678,997.474,624910026.728
679,1019.152,614328066.863
680,1006.818,624605440.109
681,1034.697,610461306.064
682,1113.820,569597543.589
683,1133.075,562384638.263
684,1055.171,606562356.244
685,1029.311,624532575.674
686,1078.250,598801495.015
687,1059.966,611798308.625
688,1079.357,603434585.591
689,1030.303,634925393.792
690,1030.892,637329613.577
691,1077.734,612283496.670
692,1052.032,629969217.666
693,1050.328,633730714.596
694,1048.491,637593234.467
695,1052.123,638142831.209
696,1056.605,638182738.109
697,1063.717,636652179.104
698,1064.552,638894844.028
699,1074.213,635874075.253
700,1084.537,632527981.987
701,1100.386,626093209.110
702,1108.139,624377281.189
703,1097.408,633180962.778
704,1105.623,631162094.132
705,1097.162,638743640.410
706,1101.305,639052425.986
707,1104.302,640030069.673
708,1136.338,624629136.753
709,1133.265,628980563.240
710,1118.772,639828311.756
711,1129.380,636500435.637
712,1138.531,634052349.914
713,1147.010,632020814.117
714,1165.395,624671195.603
715,1180.442,619303404.996
716,1176.263,624115008.293
717,1173.666,628120458.461
718,1182.020,626294363.886
719,1189.863,624769337.310
720,1168.718,638730643.320
721,1180.851,634805510.602
722,1183.439,636056523.403
723,1184.217,638283468.317
724,1191.199,637178882.790
725,1199.337,635481311.758
726,1236.250,619061154.297
727,1229.318,625128051.489
728,1217.871,633611198.559
729,1230.703,629592174.554
730,1256.275,619318222.523
731,1237.233,631437879.526
732,1243.944,630612259.073
733,1240.850,634779122.376
734,1260.763,627313625.162
735,1251.253,634668408.387
736,1259.073,633304432.706
737,1255.058,637923590.782
738,1269.188,633392802.327
739,1286.720,627305737.068
740,1279.805,633258973.047
741,1285.308,633107427.947
742,1289.310,633700953.223
743,1296.691,632644796.640
744,1293.735,636654004.104
745,1300.522,635888704.689
746,1303.364,637060615.454
747,1318.877,632102497.807
748,1317.390,635360814.945
749,1324.284,634591596.667
750,1338.799,630229033.634
751,1344.430,630103093.504
752,1333.069,638014998.473
753,1343.793,635451705.731
754,1355.465,632493002.770
755,1353.790,635798572.895
756,1354.758,637872174.957
757,1377.537,629816974.789
758,1373.190,634317919.589
759,1383.806,631946210.668
760,1372.163,639830690.669
761,1393.626,632466789.512
762,1393.996,634794831.549
763,1449.343,612960419.997
764,1450.050,615073609.876
765,1448.999,617939867.453
766,1463.237,614329867.274
767,1418.467,636204667.433
768,1433.871,631834847.068
769,1425.385,638082495.606
770,1442.118,633142364.217
771,1442.119,635611916.908
772,1469.600,626156298.312
773,1461.870,631916541.143
774,1483.801,624995971.832
775,1474.894,631210615.814
776,1481.097,631003338.741
777,1468.952,638683133.281
778,1499.092,628261577.008
779,1491.571,633867431.051
780,1495.210,634763009.878
781,1524.849,624821921.384
782,1527.162,626275101.135
783,1518.982,632066327.317
784,1508.256,639003331.000
785,1517.466,637558436.235
786,1530.431,634576346.140
